INDEX VERSION 1.131+C:\Users\ramannpr\support_works\ashok\.metadata\.plugins\org.eclipse.jdt.core
2112741047.index
2507475985.index
657863722.index
2138448766.index
1158433969.index
676535794.index
3373914127.index
3695637975.index
3515129874.index
4212076456.index
2676596651.index
3549324868.index
3484441794.index
3934181729.index
106914297.index
2231687035.index
694092095.index
692542439.index
2993760229.index
262629720.index
2747938833.index
1039947775.index
1190930684.index
3008087201.index
689552030.index
319198531.index
3049543270.index
3709201543.index
870993433.index
3962763584.index
3503238276.index
1710102452.index
374393369.index
1793950835.index
2841650353.index
1291324173.index
2169407369.index
1614806129.index
27145952.index
3105904648.index
3454296904.index
446869445.index
1879276555.index
4085636665.index
1515444387.index
3796863028.index
3579271641.index
1575816604.index
2168459144.index
3357354403.index
3664434139.index
1225148049.index
2127084088.index
3592575225.index
785988714.index
3662550970.index
1456010245.index
986730341.index
1972697557.index
656741405.index
1495270895.index
1214367305.index
1068415008.index
258828259.index
1756086121.index
778568628.index
2720751595.index
1159230734.index
751887502.index
3753146388.index
362199794.index
3142859894.index
398852022.index
1367400509.index
709509821.index
2080692850.index
4034046130.index
890392424.index
45900687.index
2513380141.index
332552512.index
575839070.index
786902668.index
2366187434.index
731968244.index
3915658389.index
2204403105.index
3324278907.index
3141256530.index
3880231276.index
1752862138.index
924709048.index
1887114750.index
2088757168.index
1068494516.index
2826165369.index
1655230666.index
3967280502.index
2532292776.index
2513897111.index
3885883768.index
1913755281.index
